Name=Paul
Max HRT=177
V02=159
Anaerobic=141
Aerobic=124
Fat Burn=106
Warm Up=88
start_time=1414285687
Reading,Time(s),HRT,Calories,Avg HRT,Max HRT,Min HRT
1,0.000,66,0,66,68,66
2,0.247,65,0,65,68,65
3,0.493,65,0,65,68,65
4,0.739,65,0,65,68,65
5,0.985,65,0,65,68,65
6,1.231,65,0,65,68,65
7,1.477,65,0,65,68,65
8,1.724,65,0,65,68,65
9,1.970,65,0,65,68,65
10,2.216,65,0,65,68,65
11,2.463,65,0,65,68,65
12,2.729,65,0,65,68,65
13,2.962,64,0,65,68,64
14,3.212,64,0,64,68,64
15,3.448,64,0,64,68,64
16,3.694,64,0,64,68,64
