Name=Paul
Max HRT=177
V02=160
Anaerobic=142
Aerobic=124
Fat Burn=106
Warm Up=89
start_time=1383260164
Reading,Time(s),HRT,Calories,Avg HRT,Max HRT,Min HRT
1,0.000,57,0,57,69,57
2,0.246,58,0,57,69,57
3,0.492,58,0,57,69,57
4,0.739,58,0,57,69,57
5,0.985,58,0,57,69,57
6,1.231,58,0,57,69,57
7,1.477,58,0,57,69,57
8,1.724,58,0,57,69,57
9,1.970,58,0,57,69,57
10,2.216,58,0,57,69,57
11,2.462,58,0,57,69,57
12,2.709,58,0,57,69,57
13,2.954,58,0,57,69,57
14,3.201,58,0,57,69,57
15,3.448,57,0,57,69,57
16,3.721,57,0,57,69,57
17,3.940,57,0,57,69,57
18,4.186,57,0,57,69,57
19,4.432,57,0,57,69,57
20,4.679,57,0,57,69,57
21,4.925,57,0,57,69,57
22,5.171,57,0,57,69,57
23,5.419,57,0,57,69,57
24,5.665,57,0,57,69,57
25,5.911,57,0,57,69,57
26,6.157,57,0,57,69,57
27,6.404,58,0,57,69,57
28,6.650,58,0,57,69,57
29,6.896,58,0,57,69,57
